@startuml
sprite $soft-iron-member [200x200/16] {
00000000000000000000000000000000000000000000000000000000000000000000000000000000000000000000000000000000000000000000000000000000000000000000000000000000000000000000000000000000000000000000000000000000
00000000000000000000000000000000000000000000000000000000000000000000000000000000000000000000000000000000000000000000000000000000000000000000000000000000000000000000000000000000000000000000000000000000
00000000000000000000000000000000000000000000000000000000000000000000000000000000000000000000000000000000000000000000000000000000000000000000000000000000000000000000000000000000000000000000000000000000
00000000000000000000000000000000000000000000000000000000000000000000000000000000000000000000000000000000000000000000000000000000000000000000000000000000000000000000000000000000000000000000000000000000
00000000000000000000000000000000000000000000000000000000000000000000000000000000000000000000000000000000000000000000000000000000000000000000000000000000000000000000000000000000000000000000000000000000
00000000000000000000000000000000000000000000000000000000000000000000000000000000000000000000000000000000000000000000000000000000000000000000000000000000000000000000000000000000000000000000000000000000
00000000000000000000000000000000000000000000000000000000000000000000000000000000000000000000000000000000000000000000000000000000000000000000000000000000000000000000000000000000000000000000000000000000
00000000000000000000000000000000000000000000000000000000000000000000000000000000000000000000000000000000000000000000000000000000000000000000000000000000000000000000000000000000000000000000000000000000
00000000000000000000000000000000000000000000000000000000000000000000000000000000000000000000000000000000000000000000000000000000000000000000000000000000000000000000000000000000000000000000000000000000
00000000000000000000000000000000000000000000000000000000000000000000000000000000000000000000000000000000000000000000000000000000000000000000000000000000000000000000000000000000000000000000000000000000
00000000000000000000000000000000000000000000000000000000000000000000000000000000000000000000000000000000000000000000000000000000000000000000000000000000000000000000000000000000000000000000000000000000
00000000000000000000000000000000000000000000000000000000000000000000000000000000000000000000000000000000000000000000000000000000000000000000000000000000000000000000000000000000000000000000000000000000
00000000000000000000000000000000000000000000000000000000000000000000000000000000000000000000000000000000000000000000000000000000000000000000000000000000000000000000000000000000000000000000000000000000
00000000000000000000000000000000000000000000000000000000000000000000000000000000000000000000000000000000000000000000000000000000000000000000000000000000000000000000000000000000000000000000000000000000
00000000000000000000000000000000000000000000000000000000000000000000000000000000000000000000000000000000000000000000000000000000000000000000000000000000000000000000000000000000000000000000000000000000
00000000000000000000000000000000000000000000000000000000000000000000000000000000000000000000000000000000000000000000000000000000000000000000000000000000000000000000000000000000000000000000000000000000
00000000000000000000000000000000000000000000000000000000000000000000000000000000000000000000000000000000000000000000000000000000000000000000000000000000000000000000000000000000000000000000000000000000
00000000000000000000000000000000000000000000000000000000000000000000000000000000000000000000000000000000000000000000000000000000000000000000000000000000000000000000000000000000000000000000000000000000
00000000000000000000000000000000000000000000000000000000000000000000000000000000000000000000000000000000000000000000000000000000000000000000000000000000000000000000000000000000000000000000000000000000
00000000000000000000000000000000000000000000000000000000000000000000000000000000000000000000000000000000000000000000000000000000000000000000000000000000000000000000000000000000000000000000000000000000
00000000000000000000000000000000000000000000000000000000000000000000000000000000000000000000000000000000000000000000000000000000000000000000000000000000000000000000000000000000000000000000000000000000
00000000000000000000000000000000000000000000000000000000000000000000000000000000000000000000000000000000000000000000000000000000000000000000000000000000000000000000000000000000000000000000000000000000
00000000000000000000000000000000000000000000000000000000000000000000000000000000000000000000000000000000000000000000000000000000000000000000000000000000000000000000000000000000000000000000000000000000
00000000000000000000000000000000000000000000000000000000000000000000000000000000000000000000000000000000000000000000000000000000000000000000000000000000000000000000000000000000000000000000000000000000
00000000000000000000000000000000000000000000000000000000000000000000000000000000000000000000000000000000000000000000000000000000000000000000000000000000000000000000000000000000000000000000000000000000
00000000000000000000000000000000000000000000000000000000000000000000000000000000000000000000000000000000000000000000000000000000000000000000000000000000000000000000000000000000000000000000000000000000
00000000000000000000000000000000000000000000000000000000000000000000000000000000000000000000000000000000000000000000000000000000000000000000000000000000000000000000000000000000000000000000000000000000
00000000000000000000000000000000000000000000000000000000000000000000000000000000000000000000000000001234550000000000003777771000017666610000000000000000000000000000000000000000000000000000000000000000
00000000000000000000000000000000000000000000000000000000000000000000000000000000000000000000000013577777770000000000003777772000007777720000055542000000000000000000000000000000000000000000000000000000
00000000000000000000000000000000000000000000000000000000000000000000000000000000000000000000003677777777771000000000002777772000007777730000057776000000000000000000000000000000000000000000000000000000
00000000000000000000000000000000000000000000000000000000000000000000000000000000000000000001477777777777771000000000002777772000007777740000047777000000000000000000000000000000000000000000000000000000
00000000000000000000000000000000000000000000000000000000000000000000000000000000000000000047777777777777772000000000013777773000007777740000037777000000000000000000000000000000000000000000000000000000
00000000000000000000000000000000000000000000000000000000000000000000000000000000000000003777777777777777653344566777777777777777770000026554444456100000000000000000000000000000000000000000000000000000
00000000000000000000000000000000000000000000000000000000000000000000000000000000000000057777777777774210004777777777777777777777770000017777760000000000000000000000000000000000000000000000000000000000
00000000000000000000000000000000000000000000000000000000000000000000000000000000000002777777777777772000004777777777777777777777771000007777760000000000000000000000000000000000000000000000000000000000
00000000000000000000000000000000000000000000000000000000000000000000000000000000000037777777777777772000003777777777777777777777771000007777770000000000000000000000000000000000000000000000000000000000
00000000000000000000000000000000000000000000000000000000000000000000000000000000000377777777777777773000003777777777777777777777772000007777771000000000000000000000000000000000000000000000000000000000
00000000000000000000000000000000000000000000000000000000000000000000000000000000003777777777777777773000003777777777777777777777772000006777771000000000000000000000000000000000000000000000000000000000
00000000000000000000000000000000000000000000000000000000000000000000000000000000027777777777777777774000002777777777777777777777777777662111220000000000000000000000000000000000000000000000000000000000
00000000000000000000000000000000000000000000000000000000000000000000000000000000177777777777777777776456677777777777777777777777777777772000000000000000000000000000000000000000000000000000000000000000
00000000000000000000000000000000000000000000000000000000000000000000000000000000677777777777777777777777777777777777777777777777777777772000000000000000000000000000000000000000000000000000000000000000
00000000000000000000000000000000000000000000000000000000000000000000000000000004777777777777777777777777777777777777777777777777777777773000000000000000000000000000000000000000000000000000000000000000
00000000000000000000000000000000000000000000000000000000000000000000000000000017777777777777777777777777777777777777777777777777777777774000000000000000000000000000000000000000000000000000000000000000
00000000000000000000000000000000000000000000000000000000000000000000000000000057777777777777777777777777777777777777777777777777777777774000000000000000000000000000000000000000000000000000000000000000
00000000000000000000000000000000000000000000000000000000000000000000000000000177777777777777777777777777777777777777777777777777777777775000000000000000000000000000000000000000000000000000000000000000
00000000000000000000000000000000000000000000000000000000000000000000000000000577777777777777777777777777777777777777777777777777775000000000000000000000000000000000000000000000000000000000000000000000
00000000000000000000000000000000000000000000000000000000000000000000000000000777777777777777777777777777777776554377777777777777775000000000000000000000000000000000000000000000000000000000000000000000
00000000000000000000000000000000000000000000000000000000000000000000000000003777777777777777777777777777777300000067777777777777776000000000000000000000000000000000000000000000000000000000000000000000
00000000000000000000000000000000000000000000000000000000000000000000000000006777777777777777777777777777777200000057777777777777776000000000000000000000000000000000000000000000000000000000000000000000
00000000000000000000000000000000000000000000000000000000000000000000000000017777777777777777777777777777777300000047777777777777777000000000000000000000000000000000000000000000000000000000000000000000
00000000000000000000000000000000000000000000000000000000000000000000000000037777777777777777777777777777777300000047777777777777777000000000000000000000000000000000000000000000000000000000000000000000
00000000000000000000000000000000000000000000000000000000000000000000000000067777777777777777777777777777777400000037777777777777777000000000000000000000000000000000000000000000000000000000000000000000
00000000000000000000000000000000000000000000000000000000000000000000000000077777777777777777777777777777777400000026554433222211111000000000000000000000000000000000000000000000000000000000000000000000
00000000000000000000000000000000000000000000000000000000000000000000000000277777777777777777777777777777777500000000000000000000000000000000000000000000000000000000000000000000000000000000000000000000
00000000000000000000000000000000000000000000000000000000000000000000000000477777777777777777777777777775421000000000000000000000000000000000000000000000000000000000000000000000000000000000000000000000
00000000000000000000000000000000000000000000000000000000000000000000000000577777777777777777777777642000000000000000000000000000000000000000000000000000000000000000000000000000000000000000000000000000
00000000000000000000000000000000000000000000000000000000000000000000000000777777777777777777777420000000000000000000000000000000000000000000000000000000000000000000000000000000000000000000000000000000
00000000000000000000000000000000000000000000000000000000000000000000000000777777777777777776410000000000000000000013000000000000000000000000000000000000000000000000000000000000000000000000000000000000
000000000000000000000000000000000000000000000000000000000000000000000000027777777777777774100000000000000000000002BC500000000000000000000000000000000000000000000000000000000000000000000000000000000000
00000000000000000000000000000000000000000000000000000000000000000000000003777777777777730000000000000000000000002BDDD70000000000000000000000000000000000000000000000000000000000000000000000000000000000
0000000000000000000000000000000000000000000000000000000000000000000000000477777777777400000000000000000000000002BDDDDD7000000000000000000000000000000000000000000000000000000000000000000000000000000000
0000000000000000000000000000000000000000000000000000000000000000000000000577777777762000000000000000000000000003CDDDDDD700000000000000000000000000000000000000000000000000000000000000000000000000000000
00000000000000000000000000000000000000000000000000000000000000000000000005777777775000000000000000000000000000004CDDDDDD50000360000000000000000000000000000000000000000000000000000000000000000000000000
000000000000000000000000000000000000000000000000000000000000000000000000067777777400000000000000000000000000000005DDDDDDC4001BD4000000000000000000000000000000000000000000000000000000000000000000000000
000000000000000000000000000000000000000000000000000000000000000000000000067777774000029000000000000000000000000000ADDDDDDC10ADDC100000000000000000000000000000000000000000000000000000000000000000000000
0000000000000000000000000000000000000000000000000000000000000000000000000777777400003CD400000000000000000000000006DDDDDDDDAADDDD700000000000000000000000000000000000000000000000000000000000000000000000
000000000000000000000000000000000000000000000000000000000000000000000000077777500004CDDB0000000000000000000000006DDDDDDDDDDDDDDDC00000000000000000000000000000000000000000000000000000000000000000000000
00000000000000000000000000000000000000000000000000000000000000000000000007777600005DDDDD400000000000000000000004DDDDDDDDDDDDDDDDC00000000000000000000000000000000000000000000000000000000000000000000000
0000000000000000000000000000000000000000000000000000000000000000000000000777710005DDDDDD8000000000000000000000008DDDDDDDDDDDDDDDB00000000000000000000000000000000000000000000000000000000000000000000000
000000000000000000000000000000000000000000000000000000000000000000000000077730003CDDDDD900000000000000000000000009DDDDDDDDDDDDDD800000000000000000000000000000000000000000000000000000000000000000000000
00000000000000000000000000000000000000000000000000000000000000000000000007760001CDDDDD9000000000000000000000000000ADDDDDDDDDDDDD400000000000000000000000000000000000000000000000000000000000000000000000
00000000000000000000000000000000000000000000000000000000000000000000000007720009DDDDDC10000000000000000000000000001BDDDDDDDDDDDC000000000000000000000000000000000000000000000000000000000000000000000000
0000000000000000000000000000000000000000000000000000000000000000000000000760004DDDDDDD600000000000000000000000000002CDDDDDDDDDD8000200000000000000000000000000000000000000000000000000000000000000000000
000000000000000000000000000000000000000000000000000000000000000000000000072000BDDDDDDDC200000000000000000000000000005DDDDDDDDDD3001400000000000000000000000000000000000000000000000000000000000000000000
000000000000000000000000000000000000000000000000000000000000000000000000060005DDDDDDDDDA000000000000000000000000000009DDDDDDDD90004400000000000000000000000000000000000000000000000000000000000000000000
00000000000000000000000000000000000000000000000000000000000000000000000003000BDDDDDDDDDD700000000000000000000000000001CDDDDDDD20007500000000000000000000000000000000000000000000000000000000000000000000
00000000000000000000000000000000000000000000000000000000000000000000000000003DDDDDDDDDDDD400000000000000000000000000006DDDDDD800037500000000000000000000000000000000000000000000000000000000000000000000
00000000000000000000000000000000000000000000000000000000000000000000000000007DDDDDDDDDDDDC20000000000000000000000000009DDDDDB000077500000000000000000000000000000000000000000000000000000000000000000000
0000000000000000000000000000000000000000000000000000000000000000000000000000BDDDDDDDDDDDDDB100000000000000000000000009DDDDDC2000477500000000000000000000000000000000000000000000000000000000000000000000
0000000000000000000000000000000000000000000000000000000000000000000000000001DDDDDDDDDDDDDDDB100000000000000000000000ADDDDDC40002777500000000000000000000000000000000000000000000000000000000000000000000
0000000000000000000000000000000000000000000000000000000000000000000000000004DDDDDDDDDDDDDDDDB00000000000000000000000BDDDDD500006777500000000000000000000000000000000000000000000000000000000000000000000
0000000000000000000000000000000000000000000000000000000000000000000000000005DDDDDDDDDDDDDDDD6000000000000000000000004DDDC5000057777500000000000000000000000000000000000000000000000000000000000000000000
0000000000000000000000000000000000000000000000000000000000000000000000000001CDDDDBDDDDDDDDD60000000000000000000000000BDC40000477777400000000000000000000000000000000000000000000000000000000000000000000
00000000000000000000000000000000000000000000000000000000000000000000000000007DDDA09DDDDDDD7000000000000000000000000005B200004777777400000000000000000000000000000000000000000000000000000000000000000000
00000000000000000000000000000000000000000000000000000000000000000000000000000BDB100BDDDDDD90000000000000000000000000001000047777777300000000000000000000000000000000000000000000000000000000000000000000
000000000000000000000000000000000000000000000000000000000000000000000000000002C20002CDDDDDD8000000000000000000000000000000577777777300000000000000000000000000000000000000000000000000000000000000000000
0000000000000000000000000000000000000000000000000000000000000000000000000000000000003CDDDDDD700000000000000000000000000016777777777200000000000000000000000000000000000000000000000000000000000000000000
00000000000000000000000000000000000000000000000000000000000000000000000000000000000004CDDDDDB10000000000000000000000000377777777777100000000000000000000000000000000000000000000000000000000000000000000
000000000000000000000000000000000000000000000000000000000000000000000000000000000000003CDDDB200000000000000000000000026777777777777000000000000000000000000000000000000000000000000000000000000000000000
0000000000000000000000000000000000000000000000000000000000000000000000000000000000000003CDB2000000000000000000000002677777777777777000000000000000000000000000000000000000000000000000000000000000000000
00000000000000000000000000000000000000000000000000000000000000000000000000000000000000002920000000000000000000002477777777777777776000000000000000000000000000000000000000000000000000000000000000000000
00000000000000000000000000000000000000000000000000000000000000000000000000000000000000000000000000000000000003577777777777777777774000000000000000000000000000000000000000000000000000000000000000000000
00000000000000000000000000000000000000000000000000000000000000000000000000000000000000000000000000000000024677777777777777777777773000000000000000000000000000000000000000000000000000000000000000000000
00000000000000000000000000000000000000000000000000000000000000000000000000000000000000000000000000001346777777777777777777777777771000000000000000000000000000000000000000000000000000000000000000000000
00000000000000000000000000000000000000000000000000000000000000000000000000000000000000000000000005677777777777777777777777777777770000000000000000000000000000000000000000000000000000000000000000000000
00000000000000000000000000000000000000000000000000000000000000000000000000000000000011223300000007777777777777777777777777777777760000000000000000000000000000000000000000000000000000000000000000000000
00000000000000000000000000000000000000000000000000000000000000000000000003776777777777777700000007777777777777777777777777777777740000000000000000000000000000000000000000000000000000000000000000000000
00000000000000000000000000000000000000000000000000000000000000000000000003777777777777777710000006777777777777777777777777777777710000000000000000000000000000000000000000000000000000000000000000000000
00000000000000000000000000000000000000000000000000000000000000000000000002777777777777777710000006777777777777777777777777777777700000000000000000000000000000000000000000000000000000000000000000000000
00000000000000000000000000000000000000000000000000000000000000000000000002777777777777777720000005777777777777777777777777777777400000000000000000000000000000000000000000000000000000000000000000000000
00000000000000000000000000000000000000000000000000000000000000000000000001777777777777777730000005777777777777777777777777777777100000000000000000000000000000000000000000000000000000000000000000000000
00000000000000000000000000000000000000000000000000000000000000000000000001777777777777777741223457777777777777777777777777777776000000000000000000000000000000000000000000000000000000000000000000000000
00000000000000000000000000000000000000000000000000000000000000000000000000777777777777777777777777777777777777777777777777777773000000000000000000000000000000000000000000000000000000000000000000000000
00000000000000000000000000000000000000000000000000000000000000000000655555777777777777777777777777777777777777777777777777777770000000000000000000000000000000000000000000000000000000000000000000000000
00000000000000000000000000000000000000000000000000000000000000000000777777777777777777777777777777777777777777777777777777777740000000000000000000000000000000000000000000000000000000000000000000000000
00000000000000000000000000000000000000000000000000000000000000000000777777777777777777777777777777777777777777777777777777777700000000000000000000000000000000000000000000000000000000000000000000000000
00000000000000000000000000000000000000000000000000000000000000000000677777777777777777777777777777777777777777777777777777777300000000000000000000000000000000000000000000000000000000000000000000000000
00000000000000000000000000000000000000000000000000000000000000000000577777777777777777777777777777777777777777777777777777775000000000000000000000000000000000000000000000000000000000000000000000000000
00000000000000000000000000000000000000000000000000000000000000000000577777777777777777777777777777777776777777777777777777770000000000000000000000000000000000000000000000000000000000000000000000000000
00000000000000000000000000000000000000000000000000000000000000000000477777777777777777777777777777321000677777777777777777720000000000000000000000000000000000000000000000000000000000000000000000000000
00000000000000000000000000000000000000000000000000000000000000477666411122677777777777777777777777000000677777777777777777300000000000000000000000000000000000000000000000000000000000000000000000000000
00000000000000000000000000000000000000000000000000000000000000477777400000577777777777777777777777000000677777777777777773000000000000000000000000000000000000000000000000000000000000000000000000000000
00000000000000000000000000000000000000000000000000000000000000377777400000477777777777777777777777100000577777777777777730000000000000000000000000000000000000000000000000000000000000000000000000000000
00000000000000000000000000000000000000000000000000000000000000277777500000477777777777777777777777100000577777777777777200000000000000000000000000000000000000000000000000000000000000000000000000000000
00000000000000000000000000000000000000000000000000000000000000177777600000377777777777777777777777200000477777777777761000000000000000000000000000000000000000000000000000000000000000000000000000000000
00000000000000000000000000000000000000000000000000000000002322177777600000377777777777777777777766334567777777777777400000000000000000000000000000000000000000000000000000000000000000000000000000000000
00000000000000000000000000000000000000000000000000000000004777700000155555422222677777443322100000477777777777777761000000000000000000000000000000000000000000000000000000000000000000000000000000000000
00000000000000000000000000000000000000000000000000000000002777710000077777500000577777000000000000477777777777776200000000000000000000000000000000000000000000000000000000000000000000000000000000000000
00000000000000000000000000000000000000000000000000000000001777720000067777500000577777000000000000477777777777510000000000000000000000000000000000000000000000000000000000000000000000000000000000000000
00000000000000000000000000000000000000000000000000000000000677730000057777500000477777000000000000377777777520000000000000000000000000000000000000000000000000000000000000000000000000000000000000000000
00000000000000000000000000000000000000000000000000000000000000100000047777600000477777000000000000377654310000000000000000000000000000000000000000000000000000000000000000000000000000000000000000000000
00000000000000000000000000000000000000000000000000000000000000000000001111100000233333000000000000000000000000000000000000000000000000000000000000000000000000000000000000000000000000000000000000000000
00000000000000000000000000000000000000000000000000000000000000000000000000000000000000000000000000000000000000000000000000000000000000000000000000000000000000000000000000000000000000000000000000000000
00000000000000000000000000000000000000000000000000000000000000000000000000000000000000000000000000000000000000000000000000000000000000000000000000000000000000000000000000000000000000000000000000000000
00000000000000000000000000000000000000000000000000000000000000000000000000000000000000000000000000000000000000000000000000000000000000000000000000000000000000000000000000000000000000000000000000000000
00000000000000000000000000000000000000000000000000000000000000000000000000000000000000000000000000000000000000000000000000000000000000000000000000000000000000000000000000000000000000000000000000000000
00000000000000000000000000000000000000000000000000000000000000000000000000000000000000000000000000000000000000000000000000000000000000000000000000000000000000000000000000000000000000000000000000000000
00000000000000000000000000000000000000000000000000000000000000000000000000000000000000000000000000000000000000000000000000000000000000000000000000000000000000000000000000000000000000000000000000000000
00000000000000000000000000000000000000000000000000000000000000000000000000000000000000000000000000000000000000000000000000000000000000000000000000000000000000000000000000000000000000000000000000000000
00000000000000000000000000000000000000000000000000000000000000000000000000000000000000000000000000000000000000000000000000000000000000000000000000000000000000000000000000000000000000000000000000000000
00000000000000000000000000000000000000000000000000000000000000000000000000000000000000000000000000000000000000000000000000000000000000000000000000000000000000000000000000000000000000000000000000000000
00000000000000000000000000000000000000000000000000000000000000000000000000000000000000000000000000000000000000000000000000000000000000000000000000000000000000000000000000000000000000000000000000000000
00000000000000000000000000000000000000000000000000000000000000000000000000000000000000000000000000000000000000000000000000000000000000000000000000000000000000000000000000000000000000000000000000000000
00000000000000000000000000000000000000000000000000000000000000000000000000000000000000000000000000000000000000000000000000000000000000000000000000000000000000000000000000000000000000000000000000000000
00000000000000000000000000000000000000000000000000000000000000000000000000000000000000000000000000000000000000000000000000000000000000000000000000000000000000000000000000000000000000000000000000000000
00000000000000000000000000000000000000000000000000000000000000000000000000000000000000000000000000000000000000000000000000000000000000000000000000000000000000000000000000000000000000000000000000000000
00000000000000000000000000000000000000000000000000000000000000000000000000000000000000000000000000000000000000000000000000000000000000000000000000000000000000000000000000000000000000000000000000000000
00000000000000000000000000000000000000000000000000000000000000000000000000000000000000000000000000000000000000000000000000000000000000000000000000000000000000000000000000000000000000000000000000000000
00000000000000000000000000000000000000000000000000000000000000000000000000000000000000000000000000000000000000000000000000000000000000000000000000000000000000000000000000000000000000000000000000000000
00000000000000000000000000000000000000000000000000000000000000000000000000000000000000000000000000000000000000000000000000000000000000000000000000000000000000000000000000000000000000000000000000000000
00000000000000000000000000000000000000000000000000000000000000000000000000000000000000000000000000000000000000000000000000000000000000000000000000000000000000000000000000000000000000000000000000000000
00000000000000000000000000000000000000000000000000000000000000000000000000000000000000000000000000000000000000000000000000000000000000000000000000000000000000000000000000000000000000000000000000000000
00000000000000000000000000000000000000000000000000000000000000000000000000000000000000000000000000000000000000000000000000000000000000000000000000000000000000000000000000000000000000000000000000000000
00000000000000000000000000000000000000000000000000000000000000000000000000000000000000000000000000000000000000000000000000000000000000000000000000000000000000000000000000000000000000000000000000000000
00000000000000000000000000000000000000000000000000000000000000000000000000000000000000000000000000000000000000000000000000000000000000000000000000000000000000000000000000000000000000000000000000000000
00000000000000000000000000000000000000000000000000000000000000000000000000000000000000000000000000000000000000000000000000000000000000000000000000000000000000000000000000000000000000000000000000000000
00000000000011000000000000000000000000001100000000000000000000000000000000000000000000000000000000000000000000000000000000000000000000000000000000000000000000000000000000000000000000000000000000000000
0000000006ACDDDC9400000000000000000059CDDDDB83000000000000008AAAAAAAAAAAAAAAA200005AAAAAAAAAAAAAAAAA8000006666660000000166666666666542000000000000000000146777775300000000000000266666300000006666661000
00000005CDDDDDDDDDA2000000000000006CDDDDDDDDDDB4000000000000BDDDDDDDDDDDDDDDC000009DDDDDDDDDDDDDDDDDA000017777770000000177777777777777730000000000000015777777777774000000000000277777700000007777772000
0000007DDDDDDDDDDDDC2000000000002BDDDDDDDDDDDDDD910000000000BDDDDDDDDDDDDDDD900000CDDDDDDDDDDDDDDDDDA000017777770000000177777777777777775000000000000477777777777777720000000000277777740000007777772000
000005DDDDDDDDDDDDDDB00000000003CDDDDDDDDDDDDDDDDB1000000000BDDDDDDDDDDDDDDD500002DDDDDDDDDDDDDDDDDDA000017777770000000177777777777777777400000000005777777777777777774000000000277777771000007777772000
00000CDDDDDDDDDDDDDDD6000000002CDDDDDDDDDDDDDDDDDDB100000000BDDDDDDDDDDDDDDD200006DDDDDDDDDDDDDDDDDDA000017777770000000177777777777777777710000000057777777777777777777300000000277777775000007777772000
00004DDDDDDB769DDDDDDB00000000BDDDDDDDDDDDDDDDDDDDD900000000BDDDDDA888888887000005888888DDDDDD8888886000017777770000000177777744445777777750000000377777777777777777777710000000277777777100007777772000
00007DDDDDA00006DDDDDD10000007DDDDDDDC742248CDDDDDDD40000000BDDDDD6000000000000000000001DDDDDD1000000000017777770000000177777700000067777770000000777777776311136777777760000000277777777600007777772000
00008DDDDD700001BBBBBB1000001CDDDDDD910000002ADDDDDDB0000000BDDDDD6000000000000000000001DDDDDD1000000000017777770000000177777700000027777771000004777777730000000377777773000000277777777720007777772000
00008DDDDDB000000000000000006DDDDDD90000000000ADDDDDD3000000BDDDDD6000000000000000000001DDDDDD1000000000017777770000000177777700000007777771000007777777200000000027777776000000277777777760007777772000
00006DDDDDDB6200000000000000ADDDDDC100000000002CDDDDD8000000BDDDDD6000000000000000000001DDDDDD1000000000017777770000000177777700000017777771000027777774000000000004777777100000277777777773007777772000
00002DDDDDDDDDB6200000000000DDDDDD60000000000008DDDDDB000000BDDDDD9555555530000000000001DDDDDD1000000000017777770000000177777700000037777770000047777770000000000000777777200000277777777777007777772000
000008DDDDDDDDDDDA4000000002DDDDDD20000000000004DDDDDC000000BDDDDDDDDDDDDD40000000000001DDDDDD1000000000017777770000000177777700000377777760000057777750000000000000677777400000277777777777407777772000
000001BDDDDDDDDDDDDA10000003DDDDDD00000000000002DDDDDD100000BDDDDDDDDDDDDD10000000000001DDDDDD1000000000017777770000000177777777777777777730000067777740000000000000477777400000277777757777717777772000
0000001ADDDDDDDDDDDDB2000003DDDDDD00000000000001DDDDDD100000BDDDDDDDDDDDDA00000000000001DDDDDD1000000000017777770000000177777777777777777700000067777740000000000000477777400000277777617777757777772000
000000004ADDDDDDDDDDDA000002DDDDDD20000000000003DDDDDD000000BDDDDDDDDDDDD700000000000001DDDDDD1000000000017777770000000177777777777777777200000057777750000000000000577777400000277777604777777777772000
000000000026ADDDDDDDDD500001DDDDDD50000000000007DDDDDB000000BDDDDDDDDDDDD300000000000001DDDDDD1000000000017777770000000177777777777777772000000047777770000000000000777777300000277777600777777777772000
000000000000026CDDDDDDA00000BDDDDDB000000000001CDDDDD8000000BDDDDD6000000000000000000001DDDDDD1000000000017777770000000177777777777777400000000027777773000000000004777777100000277777600477777777772000
00000000000000009DDDDDC000006DDDDDD700000000009DDDDDD4000000BDDDDD6000000000000000000001DDDDDD1000000000017777770000000177777747777773000000000007777777100000000017777776000000277777600077777777772000
00008888883000004DDDDDD000001CDDDDDD7000000009DDDDDDB0000000BDDDDD6000000000000000000001DDDDDD1000000000017777770000000177777705777777100000000004777777710000000277777773000000277777600037777777772000
0000CDDDDD8000008DDDDDC0000008DDDDDDDB510026CDDDDDDD50000000BDDDDD6000000000000000000001DDDDDD1000000000017777770000000177777700777777600000000001777777775200025777777770000000277777600006777777772000
00009DDDDDD83248DDDDDD90000001CDDDDDDDDDDDDDDDDDDDDA00000000BDDDDD6000000000000000000001DDDDDD1000000000017777770000000177777700377777730000000000377777777777777777777720000000277777600002777777772000
00005DDDDDDDDDDDDDDDDD500000003CDDDDDDDDDDDDDDDDDDC100000000BDDDDD6000000000000000000001DDDDDD1000000000017777770000000177777700057777771000000000057777777777777777777400000000277777600000577777772000
00000ADDDDDDDDDDDDDDDA0000000004CDDDDDDDDDDDDDDDDC3000000000BDDDDD6000000000000000000001DDDDDD1000000000017777770000000177777700017777776000000000005777777777777777775000000000277777600000177777772000
000002CDDDDDDDDDDDDDB200000000003BDDDDDDDDDDDDDDB20000000000BDDDDD6000000000000000000001DDDDDD1000000000017777770000000177777700003777777400000000000477777777777777740000000000277777600000047777772000
00000019DDDDDDDDDDD9100000000000018CDDDDDDDDDDC6000000000000BDDDDD6000000000000000000001DDDDDD1000000000017777770000000177777700000677777720000000000026777777777776100000000000277777600000007777772000
0000000039CDDDDDC83000000000000000016ADDDDDCA610000000000000BDDDDD6000000000000000000001DDDDDD1000000000017777770000000177777700000177777770000000000000257777777420000000000000277777600000003777772000
00000000000233310000000000000000000000023320000000000000000000000000000000000000000000000000000000000000000000000000000000000000000000000000000000000000000112100000000000000000000000000000000000000000
00000000000000000000000000000000000000000000000000000000000000000000000000000000000000000000000000000000000000000000000000000000000000000000000000000000000000000000000000000000000000000000000000000000
00000000000000000000000000000000000000000000000000000000000000000000000000000000000000000000000000000000000000000000000000000000000000000000000000000000000000000000000000000000000000000000000000000000
00000000000000000000000000000000000000000000000000000000000000000000000000000000000000000000000000000000000000000000000000000000000000000000000000000000000000000000000000000000000000000000000000000000
00000000000000000000000000000000000000000000000000000000000000000000000000000000000000000000000000000000000000000000000000000000000000000000000000000000000000000000000000000000000000000000000000000000
00000000000000000000000000000000000000000000000000000000000000000000000000000000000000000000000000000000000000000000000000000000000000000000000000000000000000000000000000000000000000000000000000000000
00000000000000000000000000000000000000000000000000000000000000000000000000000000000000000000000000000000000000000000000000000000000000000000000000000000000000000000000000000000000000000000000000000000
00000000000000000000000000000000000000000000000000000000000000000000000000000000000000000000000000000000000000000000000000000000000000000000000000000000000000000000000000000000000000000000000000000000
00000000000000000000000000000000000000000000000000000000000000000000000000000000000000000000000000000000000000000000000000000000000000000000000000000000000000000000000000000000000000000000000000000000
00000000000000000000000000000000000000000000000000000000000000000000000000000000000000000000000000000000000000000000000000000000000000000000000000000000000000000000000000000000000000000000000000000000
00000000000000000000000000000000000000000000000000000000000000000000000000000000000000000000000000000000000000000000000000000000000000000000000000000000000000000000000000000000000000000000000000000000
00000000000000000000000000000000000000000000000000000000000000000000000000000000000000000000000000000000000000000000000000000000000000000000000000000000000000000000000000000000000000000000000000000000
00000000000000000000000000000000000000000000000000000000000000000000000000000000000000000000000000000000000000000000000000000000000000000000000000000000000000000000000000000000000000000000000000000000
00000000000000000000000000000000000000000000000000000000000000000000000000000000000000000000000000000000000000000000000000000000000000000000000000000000000000000000000000000000000000000000000000000000
00000000000000000000000000000000000000000000000000000000000000000000000000000000000000000000000000000000000000000000000000000000000000000000000000000000000000000000000000000000000000000000000000000000
00000000000000000000000000000000000000000000000000000000000000000000000000000000000000000000000000000000000000000000000000000000000000000000000000000000000000000000000000000000000000000000000000000000
00000000000000000000000000000000000000000000000000000000000000000000000000000000000000000000000000000000000000000000000000000000000000000000000000000000000000000000000000000000000000000000000000000000
00000000000000000000000000000000000000000000000000000000000000000000000000000000000000000000000000000000000000000000000000000000000000000000000000000000000000000000000000000000000000000000000000000000
00000000000000000000000000000000000000000000000000000000000000000000000000000000000000000000000000000000000000000000000000000000000000000000000000000000000000000000000000000000000000000000000000000000
00000000000000000000000000000000000000000000000000000000000000000000000000000000000000000000000000000000000000000000000000000000000000000000000000000000000000000000000000000000000000000000000000000000
00000000000000000000000000000000000000000000000000000000000000000000000000000000000000000000000000000000000000000000000000000000000000000000000000000000000000000000000000000000000000000000000000000000
00000000000000000000000000000000000000000000000000000000000000000000000000000000000000000000000000000000000000000000000000000000000000000000000000000000000000000000000000000000000000000000000000000000
00000000000000000000000000000000000000000000000000000000000000000000000000000000000000000000000000000000000000000000000000000000000000000000000000000000000000000000000000000000000000000000000000000000
00000000000000000000000000000000000000000000000000000000000000000000000000000000000000000000000000000000000000000000000000000000000000000000000000000000000000000000000000000000000000000000000000000000
00000000000000000000000000000000000000000000000000000000000000000000000000000000000000000000000000000000000000000000000000000000000000000000000000000000000000000000000000000000000000000000000000000000
00000000000000000000000000000000000000000000000000000000000000000000000000000000000000000000000000000000000000000000000000000000000000000000000000000000000000000000000000000000000000000000000000000000
00000000000000000000000000000000000000000000000000000000000000000000000000000000000000000000000000000000000000000000000000000000000000000000000000000000000000000000000000000000000000000000000000000000
}
@enduml
