@startuml
sprite $soft-iron-member [160x160/16] {
0000000000000000000000000000000000000000000000000000000000000000000000000000000000000000000000000000000000000000000000000000000000000000000000000000000000000000
0000000000000000000000000000000000000000000000000000000000000000000000000000000000000000000000000000000000000000000000000000000000000000000000000000000000000000
0000000000000000000000000000000000000000000000000000000000000000000000000000000000000000000000000000000000000000000000000000000000000000000000000000000000000000
0000000000000000000000000000000000000000000000000000000000000000000000000000000000000000000000000000000000000000000000000000000000000000000000000000000000000000
0000000000000000000000000000000000000000000000000000000000000000000000000000000000000000000000000000000000000000000000000000000000000000000000000000000000000000
0000000000000000000000000000000000000000000000000000000000000000000000000000000000000000000000000000000000000000000000000000000000000000000000000000000000000000
0000000000000000000000000000000000000000000000000000000000000000000000000000000000000000000000000000000000000000000000000000000000000000000000000000000000000000
0000000000000000000000000000000000000000000000000000000000000000000000000000000000000000000000000000000000000000000000000000000000000000000000000000000000000000
0000000000000000000000000000000000000000000000000000000000000000000000000000000000000000000000000000000000000000000000000000000000000000000000000000000000000000
0000000000000000000000000000000000000000000000000000000000000000000000000000000000000000000000000000000000000000000000000000000000000000000000000000000000000000
0000000000000000000000000000000000000000000000000000000000000000000000000000000000000000000000000000000000000000000000000000000000000000000000000000000000000000
0000000000000000000000000000000000000000000000000000000000000000000000000000000000000000000000000000000000000000000000000000000000000000000000000000000000000000
0000000000000000000000000000000000000000000000000000000000000000000000000000000000000000000000000000000000000000000000000000000000000000000000000000000000000000
0000000000000000000000000000000000000000000000000000000000000000000000000000000000000000000000000000000000000000000000000000000000000000000000000000000000000000
0000000000000000000000000000000000000000000000000000000000000000000000000000000000000000000000000000000000000000000000000000000000000000000000000000000000000000
0000000000000000000000000000000000000000000000000000000000000000000000000000000000000000000000000000000000000000000000000000000000000000000000000000000000000000
0000000000000000000000000000000000000000000000000000000000000000000000000000000000000000000000000000000000000000000000000000000000000000000000000000000000000000
0000000000000000000000000000000000000000000000000000000000000000000000000000000000000000000000000000000000000000000000000000000000000000000000000000000000000000
0000000000000000000000000000000000000000000000000000000000000000000000000000000000000000000000000000000000000000000000000000000000000000000000000000000000000000
0000000000000000000000000000000000000000000000000000000000000000000000000000000000000000000000000000000000000000000000000000000000000000000000000000000000000000
0000000000000000000000000000000000000000000000000000000000000000000000000000000000000000000000000000000000000000000000000000000000000000000000000000000000000000
0000000000000000000000000000000000000000000000000000000000000000000000000000000000000000000000022331000011110000000000000000000000000000000000000000000000000000
0000000000000000000000000000000000000000000000000000000000000000000000000000001467777000000000077773000077771000032100000000000000000000000000000000000000000000
0000000000000000000000000000000000000000000000000000000000000000000000000001577777777000000000077773000077771000077750000000000000000000000000000000000000000000
0000000000000000000000000000000000000000000000000000000000000000000000000377777777777000000000077773000077772000077770000000000000000000000000000000000000000000
0000000000000000000000000000000000000000000000000000000000000000000000027777777777777000011123477775222156663100067770000000000000000000000000000000000000000000
0000000000000000000000000000000000000000000000000000000000000000000000677777777764210777777777777777777700002777720010000000000000000000000000000000000000000000
0000000000000000000000000000000000000000000000000000000000000000000017777777777710000777777777777777777700001777740000000000000000000000000000000000000000000000
0000000000000000000000000000000000000000000000000000000000000000000377777777777710000777777777777777777700000777750000000000000000000000000000000000000000000000
0000000000000000000000000000000000000000000000000000000000000000003777777777777710000677777777777777777710000777760000000000000000000000000000000000000000000000
0000000000000000000000000000000000000000000000000000000000000000027777777777777710000577777777777777777755544344550000000000000000000000000000000000000000000000
0000000000000000000000000000000000000000000000000000000000000000177777777777777733467777777777777777777777777000000000000000000000000000000000000000000000000000
0000000000000000000000000000000000000000000000000000000000000000777777777777777777777777777777777777777777777000000000000000000000000000000000000000000000000000
0000000000000000000000000000000000000000000000000000000000000004777777777777777777777777777777777777777777777000000000000000000000000000000000000000000000000000
0000000000000000000000000000000000000000000000000000000000000007777777777777777777777777777777777777777777777000000000000000000000000000000000000000000000000000
0000000000000000000000000000000000000000000000000000000000000067777777777777777777777777777777777777777777777200000000000000000000000000000000000000000000000000
0000000000000000000000000000000000000000000000000000000000000077777777777777777777777777777777777777777740000000000000000000000000000000000000000000000000000000
0000000000000000000000000000000000000000000000000000000000000477777777777777777777777764210577777777777750000000000000000000000000000000000000000000000000000000
0000000000000000000000000000000000000000000000000000000000000777777777777777777777777700000477777777777760000000000000000000000000000000000000000000000000000000
0000000000000000000000000000000000000000000000000000000000001777777777777777777777777700000377777777777770000000000000000000000000000000000000000000000000000000
0000000000000000000000000000000000000000000000000000000000005777777777777777777777777700000277777777777770000000000000000000000000000000000000000000000000000000
0000000000000000000000000000000000000000000000000000000000007777777777777777777777777700000177777777666660000000000000000000000000000000000000000000000000000000
0000000000000000000000000000000000000000000000000000000000007777777777777777777777777700000010000000000000000000000000000000000000000000000000000000000000000000
0000000000000000000000000000000000000000000000000000000000027777777777777777777777663000000000000000000000000000000000000000000000000000000000000000000000000000
0000000000000000000000000000000000000000000000000000000000057777777777777777776310000000000000000000000000000000000000000000000000000000000000000000000000000000
0000000000000000000000000000000000000000000000000000000000077777777777777775100000000000000000000000000000000000000000000000000000000000000000000000000000000000
00000000000000000000000000000000000000000000000000000000000777777777777730000000000000000007A0000000000000000000000000000000000000000000000000000000000000000000
0000000000000000000000000000000000000000000000000000000000077777777777200000000000000000007DDC000000000000000000000000000000000000000000000000000000000000000000
000000000000000000000000000000000000000000000000000000000007777777772000000000000000000007DDDDC00000000000000000000000000000000000000000000000000000000000000000
000000000000000000000000000000000000000000000000000000000027777777600000000000000000000003DDDDDC0000000000000000000000000000000000000000000000000000000000000000
0000000000000000000000000000000000000000000000000000000000377777750000000000000000000000004DDDDDB000A90000000000000000000000000000000000000000000000000000000000
00000000000000000000000000000000000000000000000000000000004777774000160000000000000000000008DDDDD807DD3000000000000000000000000000000000000000000000000000000000
00000000000000000000000000000000000000000000000000000000005777740003CC000000000000000000003DDDDDDD9DDDC000000000000000000000000000000000000000000000000000000000
0000000000000000000000000000000000000000000000000000000000577750005DDD40000000000000000002DDDDDDDDDDDDD100000000000000000000000000000000000000000000000000000000
000000000000000000000000000000000000000000000000000000000067770005DDDDC0000000000000000005DDDDDDDDDDDDD000000000000000000000000000000000000000000000000000000000
00000000000000000000000000000000000000000000000000000000006771003DDDDD400000000000000000006DDDDDDDDDDDD000000000000000000000000000000000000000000000000000000000
0000000000000000000000000000000000000000000000000000000000675001CDDDD30000000000000000000007DDDDDDDDDD9000000000000000000000000000000000000000000000000000000000
000000000000000000000000000000000000000000000000000000000067000BDDDDD00000000000000000000000ADDDDDDDDD2000000000000000000000000000000000000000000000000000000000
000000000000000000000000000000000000000000000000000000000055004DDDDDD700000000000000000000000CDDDDDDDC0000000000000000000000000000000000000000000000000000000000
00000000000000000000000000000000000000000000000000000000005000CDDDDDDD100000000000000000000002DDDDDDD60051000000000000000000000000000000000000000000000000000000
00000000000000000000000000000000000000000000000000000000004002DDDDDDDDC000000000000000000000009DDDDDC00072000000000000000000000000000000000000000000000000000000
0000000000000000000000000000000000000000000000000000000000000ADDDDDDDDDA00000000000000000000000DDDDD200472000000000000000000000000000000000000000000000000000000
0000000000000000000000000000000000000000000000000000000000000DDDDDDDDDDD7000000000000000000000BDDDD8000772000000000000000000000000000000000000000000000000000000
0000000000000000000000000000000000000000000000000000000000002DDDDDDDDDDDD60000000000000000000CDDDDA0006772000000000000000000000000000000000000000000000000000000
0000000000000000000000000000000000000000000000000000000000006DDDDDDDDDDDDD4000000000000000000DDDDB00037772000000000000000000000000000000000000000000000000000000
0000000000000000000000000000000000000000000000000000000000005DDDDDDDDDDDD900000000000000000007DDA000177771000000000000000000000000000000000000000000000000000000
0000000000000000000000000000000000000000000000000000000000000DDDC4DDDDDD9000000000000000000000C80000777771000000000000000000000000000000000000000000000000000000
00000000000000000000000000000000000000000000000000000000000004DC009DDDDD5000000000000000000000300017777770000000000000000000000000000000000000000000000000000000
0000000000000000000000000000000000000000000000000000000000000091000BDDDDD500000000000000000000000277777770000000000000000000000000000000000000000000000000000000
00000000000000000000000000000000000000000000000000000000000000000000CDDDDD20000000000000000000004777777770000000000000000000000000000000000000000000000000000000
000000000000000000000000000000000000000000000000000000000000000000000CDDDC00000000000000000000277777777770000000000000000000000000000000000000000000000000000000
0000000000000000000000000000000000000000000000000000000000000000000000BDC000000000000000000017777777777770000000000000000000000000000000000000000000000000000000
0000000000000000000000000000000000000000000000000000000000000000000000080000000000000000015777777777777750000000000000000000000000000000000000000000000000000000
0000000000000000000000000000000000000000000000000000000000000000000000000000000000000025777777777777777720000000000000000000000000000000000000000000000000000000
0000000000000000000000000000000000000000000000000000000000000000000000000000000000357777777777777777777710000000000000000000000000000000000000000000000000000000
0000000000000000000000000000000000000000000000000000000000000000000000000000015777777777777777777777777700000000000000000000000000000000000000000000000000000000
0000000000000000000000000000000000000000000000000000000000000000000123450000027777777777777777777777777600000000000000000000000000000000000000000000000000000000
0000000000000000000000000000000000000000000000000000000000077777777777770000017777777777777777777777777400000000000000000000000000000000000000000000000000000000
0000000000000000000000000000000000000000000000000000000000077777777777770000017777777777777777777777777000000000000000000000000000000000000000000000000000000000
0000000000000000000000000000000000000000000000000000000000077777777777771000007777777777777777777777777000000000000000000000000000000000000000000000000000000000
0000000000000000000000000000000000000000000000000000000000077777777777771000007777777777777777777777774000000000000000000000000000000000000000000000000000000000
0000000000000000000000000000000000000000000000000000000000077777777777774457777777777777777777777777770000000000000000000000000000000000000000000000000000000000
0000000000000000000000000000000000000000000000000000002222277777777777777777777777777777777777777777760000000000000000000000000000000000000000000000000000000000
0000000000000000000000000000000000000000000000000000005777777777777777777777777777777777777777777777710000000000000000000000000000000000000000000000000000000000
0000000000000000000000000000000000000000000000000000004777777777777777777777777777777777777777777777600000000000000000000000000000000000000000000000000000000000
0000000000000000000000000000000000000000000000000000003777777777777777777777777777777777777777777777000000000000000000000000000000000000000000000000000000000000
0000000000000000000000000000000000000000000000000000002777777777777777777777777777777777777777777773000000000000000000000000000000000000000000000000000000000000
0000000000000000000000000000000000000000000000000000001777777777777777777777775320067777777777777750000000000000000000000000000000000000000000000000000000000000
0000000000000000000000000000000000000000000000000077776111147777777777777777772000057777777777777600000000000000000000000000000000000000000000000000000000000000
0000000000000000000000000000000000000000000000000077777000037777777777777777773000047777777777776000000000000000000000000000000000000000000000000000000000000000
0000000000000000000000000000000000000000000000000077777000027777777777777777773000047777777777760000000000000000000000000000000000000000000000000000000000000000
0000000000000000000000000000000000000000000000000067777000017777777777777777774000037777777777400000000000000000000000000000000000000000000000000000000000000000
0000000000000000000000000000000000000000000000143257777000017777777777777777754466777777777771000000000000000000000000000000000000000000000000000000000000000000
0000000000000000000000000000000000000000000000077730000777760000677770000000001777777777777300000000000000000000000000000000000000000000000000000000000000000000
0000000000000000000000000000000000000000000000077750000677760000677770000000000777777777720000000000000000000000000000000000000000000000000000000000000000000000
0000000000000000000000000000000000000000000000077760000477760000677770000000000777777751000000000000000000000000000000000000000000000000000000000000000000000000
0000000000000000000000000000000000000000000000000000000277760000677770000000000775310000000000000000000000000000000000000000000000000000000000000000000000000000
0000000000000000000000000000000000000000000000000000000000000000000000000000000000000000000000000000000000000000000000000000000000000000000000000000000000000000
0000000000000000000000000000000000000000000000000000000000000000000000000000000000000000000000000000000000000000000000000000000000000000000000000000000000000000
0000000000000000000000000000000000000000000000000000000000000000000000000000000000000000000000000000000000000000000000000000000000000000000000000000000000000000
0000000000000000000000000000000000000000000000000000000000000000000000000000000000000000000000000000000000000000000000000000000000000000000000000000000000000000
0000000000000000000000000000000000000000000000000000000000000000000000000000000000000000000000000000000000000000000000000000000000000000000000000000000000000000
0000000000000000000000000000000000000000000000000000000000000000000000000000000000000000000000000000000000000000000000000000000000000000000000000000000000000000
0000000000000000000000000000000000000000000000000000000000000000000000000000000000000000000000000000000000000000000000000000000000000000000000000000000000000000
0000000000000000000000000000000000000000000000000000000000000000000000000000000000000000000000000000000000000000000000000000000000000000000000000000000000000000
0000000000000000000000000000000000000000000000000000000000000000000000000000000000000000000000000000000000000000000000000000000000000000000000000000000000000000
0000000000000000000000000000000000000000000000000000000000000000000000000000000000000000000000000000000000000000000000000000000000000000000000000000000000000000
0000000000000000000000000000000000000000000000000000000000000000000000000000000000000000000000000000000000000000000000000000000000000000000000000000000000000000
0000000000000000000000000000000000000000000000000000000000000000000000000000000000000000000000000000000000000000000000000000000000000000000000000000000000000000
0000000000000000000000000000000000000000000000000000000000000000000000000000000000000000000000000000000000000000000000000000000000000000000000000000000000000000
0000000000000000000000000000000000000000000000000000000000000000000000000000000000000000000000000000000000000000000000000000000000000000000000000000000000000000
0000000000000000000000000000000000000000000000000000000000000000000000000000000000000000000000000000000000000000000000000000000000000000000000000000000000000000
0000000000000000000000000000000000000000000000000000000000000000000000000000000000000000000000000000000000000000000000000000000000000000000000000000000000000000
0000000000000000000000000000000000000000000000000000000000000000000000000000000000000000000000000000000000000000000000000000000000000000000000000000000000000000
0000000000000000000000000000000000000000000000000000000000000000000000000000000000000000000000000000000000000000000000000000000000000000000000000000000000000000
0000000000000000000000000000000000000000000000000000000000000000000000000000000000000000000000000000000000000000000000000000000000000000000000000000000000000000
0000000000000000000000000000000000000000000000000000000000000000000000000000000000000000000000000000000000000000000000000000000000000000000000000000000000000000
0000000023542000000000000000002454210000000000001222222222222100002222222222222210000111110000001111111110000000000000000001233200000000000000111100000011111000
0000006CDDDDDC900000000000009CDDDDDDB40000000000CDDDDDDDDDDDDA0000DDDDDDDDDDDDDD90001777760000017777777777750000000000000477777777300000000005777710000077777000
00000ADDDDDDDDDC00000000006DDDDDDDDDDDB000000000CDDDDDDDDDDDD50002DDDDDDDDDDDDDD90001777760000017777777777777100000000027777777777771000000005777770000077777000
00008DDDDDDDDDDDC000000009DDDDDDDDDDDDDC10000000CDDDDDDDDDDDD00008DDDDDDDDDDDDDD90001777760000017777777777777700000000477777777777777200000005777772000077777000
0000DDDDDDDDDDDDD30000008DDDDDDDDDDDDDDDD0000000CDDDDDDDDDDDD0000DDDDDDDDDDDDDDD90001777760000017777777777777760000002777777777777777710000005777777000077777000
0003DDDDC101BDDDD9000002DDDDDDD967CDDDDDDA000000CDDDD00000000000000000ADDDD3000000001777760000017777700004777770000007777777644677777770000005777777300077777000
0006DDDD40002CCCCA00000CDDDDD8000001CDDDDD200000CDDDD00000000000000000ADDDD2000000001777760000017777700000777771000057777760000006777773000005777777700077777000
0005DDDDB00000000000001DDDDD600000000DDDDD900000CDDDD00000000000000000ADDDD2000000001777760000017777700000677772000077777600000000677777000005777777750077777000
0002DDDDDD8200000000008DDDDB0000000003DDDDD00000CDDDD00000000000000000ADDDD2000000001777760000017777700000677771000177777000000000077777000005777777770077777000
0000CDDDDDDDC910000000ADDDD50000000000CDDDD00000CDDDDCCCCCC80000000000ADDDD2000000001777760000017777700001777770000377775000000000067777100005777777776077777000
00002DDDDDDDDDDA000000BDDDD10000000000ADDDD10000CDDDDDDDDDD20000000000ADDDD2000000001777760000017777777777777770000577772000000000037777300005777757777177777000
000002CDDDDDDDDDC00000BDDDD10000000000ADDDD20000CDDDDDDDDDD00000000000ADDDD2000000001777760000017777777777777710000477772000000000037777300005777717777677777000
00000005BDDDDDDDDA0000ADDDD50000000000CDDDD00000CDDDDDDDDDC00000000000ADDDD2000000001777760000017777777777777400000377775000000000057777200005777711777777777000
00000000004BDDDDDD10008DDDDB0000000002DDDDD00000CDDDD33333100000000000ADDDD2000000001777760000017777777777772000000177777000000000077777100005777710677777777000
0000000000001DDDDD20001DDDDD400000000CDDDDB00000CDDDD00000000000000000ADDDD2000000001777760000017777767777500000000077777500000000577777000005777710077777777000
000BBBBB20000ADDDD30000CDDDDD5000000BDDDDD200000CDDDD00000000000000000ADDDD2000000001777760000017777707777720000000057777750000005777774000005777710057777777000
000ADDDDA0001DDDDD200002DDDDDDC634ADDDDDDB000000CDDDD00000000000000000ADDDD2000000001777760000017777703777770000000007777777422577777770000005777710007777777000
0004DDDDDCBBDDDDDC0000009DDDDDDDDDDDDDDDD0000000CDDDD00000000000000000ADDDD2000000001777760000017777700777776000000002777777777777777710000005777710004777777000
0000CDDDDDDDDDDDD80000000ADDDDDDDDDDDDDC20000000CDDDD00000000000000000ADDDD2000000001777760000017777700077777300000000477777777777777300000005777710000777777000
00001DDDDDDDDDDDA0000000008DDDDDDDDDDDC100000000CDDDD00000000000000000ADDDD2000000001777760000017777700047777700000000027777777777772000000005777710000277777000
000000ADDDDDDDC6000000000001ADDDDDDDC70000000000CDDDD00000000000000000ADDDD2000000001777760000017777700007777770000000000577777777500000000005777710000077777000
0000000137885200000000000000003788520000000000003333300000000000000000233330000000000111110000001111100000111110000000000001345310000000000001111100000011111000
0000000000000000000000000000000000000000000000000000000000000000000000000000000000000000000000000000000000000000000000000000000000000000000000000000000000000000
0000000000000000000000000000000000000000000000000000000000000000000000000000000000000000000000000000000000000000000000000000000000000000000000000000000000000000
0000000000000000000000000000000000000000000000000000000000000000000000000000000000000000000000000000000000000000000000000000000000000000000000000000000000000000
0000000000000000000000000000000000000000000000000000000000000000000000000000000000000000000000000000000000000000000000000000000000000000000000000000000000000000
0000000000000000000000000000000000000000000000000000000000000000000000000000000000000000000000000000000000000000000000000000000000000000000000000000000000000000
0000000000000000000000000000000000000000000000000000000000000000000000000000000000000000000000000000000000000000000000000000000000000000000000000000000000000000
0000000000000000000000000000000000000000000000000000000000000000000000000000000000000000000000000000000000000000000000000000000000000000000000000000000000000000
0000000000000000000000000000000000000000000000000000000000000000000000000000000000000000000000000000000000000000000000000000000000000000000000000000000000000000
0000000000000000000000000000000000000000000000000000000000000000000000000000000000000000000000000000000000000000000000000000000000000000000000000000000000000000
0000000000000000000000000000000000000000000000000000000000000000000000000000000000000000000000000000000000000000000000000000000000000000000000000000000000000000
0000000000000000000000000000000000000000000000000000000000000000000000000000000000000000000000000000000000000000000000000000000000000000000000000000000000000000
0000000000000000000000000000000000000000000000000000000000000000000000000000000000000000000000000000000000000000000000000000000000000000000000000000000000000000
0000000000000000000000000000000000000000000000000000000000000000000000000000000000000000000000000000000000000000000000000000000000000000000000000000000000000000
0000000000000000000000000000000000000000000000000000000000000000000000000000000000000000000000000000000000000000000000000000000000000000000000000000000000000000
0000000000000000000000000000000000000000000000000000000000000000000000000000000000000000000000000000000000000000000000000000000000000000000000000000000000000000
0000000000000000000000000000000000000000000000000000000000000000000000000000000000000000000000000000000000000000000000000000000000000000000000000000000000000000
0000000000000000000000000000000000000000000000000000000000000000000000000000000000000000000000000000000000000000000000000000000000000000000000000000000000000000
0000000000000000000000000000000000000000000000000000000000000000000000000000000000000000000000000000000000000000000000000000000000000000000000000000000000000000
0000000000000000000000000000000000000000000000000000000000000000000000000000000000000000000000000000000000000000000000000000000000000000000000000000000000000000
0000000000000000000000000000000000000000000000000000000000000000000000000000000000000000000000000000000000000000000000000000000000000000000000000000000000000000
0000000000000000000000000000000000000000000000000000000000000000000000000000000000000000000000000000000000000000000000000000000000000000000000000000000000000000
}
@enduml
